#   Interval Wave (nm)        ABRNO3            AOCLO        ACl2O       ACl2O3
   1         121.5       0.00000E+00      0.00000E+00  0.00000e+00  0.00000e+00
   2         116.700     0.00000E+00      0.00000E+00  0.00000e+00  0.00000e+00
   3         117.300     0.00000E+00      0.00000E+00  0.00000e+00  0.00000e+00
   4         117.900     0.00000E+00      0.00000E+00  0.00000e+00  0.00000e+00
   5         118.700     0.00000E+00      0.00000E+00  0.00000e+00  0.00000e+00
   6         119.400     0.00000E+00      0.00000E+00  0.00000e+00  0.00000e+00
   7         120.200     0.00000E+00      0.00000E+00  0.00000e+00  0.00000e+00
   8         120.800     0.00000E+00      0.00000E+00  0.00000e+00  0.00000e+00
   9         121.600     0.00000E+00      0.00000E+00  0.00000e+00  0.00000e+00
   10         122.300    0.00000E+00      0.00000E+00  0.00000e+00  0.00000e+00
   11         123.100    0.00000E+00      0.00000E+00  0.00000e+00  0.00000e+00
   12         123.800    0.00000E+00      0.00000E+00  0.00000e+00  0.00000e+00
   13         124.600    0.00000E+00      0.00000E+00  0.00000e+00  0.00000e+00
   14         125.400    0.00000E+00      0.00000E+00  0.00000e+00  0.00000e+00
   15         126.200    0.00000E+00      0.00000E+00  0.00000e+00  0.00000e+00
   16         127.000    0.00000E+00      0.00000E+00  0.00000e+00  0.00000e+00
   17         127.800    0.00000E+00      0.00000E+00  0.00000e+00  0.00000e+00
   18         128.600    0.00000E+00      0.00000E+00  0.00000e+00  0.00000e+00
   19         129.400    0.00000E+00      0.00000E+00  0.00000e+00  0.00000e+00
   20         130.300    0.00000E+00      0.00000E+00  0.00000e+00  0.00000e+00
   21         131.100    0.00000E+00      0.00000E+00  0.00000e+00  0.00000e+00
   22         132.000    0.00000E+00      0.00000E+00  0.00000e+00  0.00000e+00
   23         132.900    0.00000E+00      0.00000E+00  0.00000e+00  0.00000e+00
   24         133.800    0.00000E+00      0.00000E+00  0.00000e+00  0.00000e+00
   25         134.600    0.00000E+00      0.00000E+00  0.00000e+00  0.00000e+00
   26         135.600    0.00000E+00      0.00000E+00  0.00000e+00  0.00000e+00
   27         136.500    0.00000E+00      0.00000E+00  0.00000e+00  0.00000e+00
   28         137.400    0.00000E+00      0.00000E+00  0.00000e+00  0.00000e+00
   29         138.400    0.00000E+00      0.00000E+00  0.00000e+00  0.00000e+00
   30         139.900    0.00000E+00      0.00000E+00  0.00000e+00  0.00000e+00
   31         141.800    0.00000E+00      0.00000E+00  0.00000e+00  0.00000e+00
   32         143.900    0.00000E+00      0.00000E+00  0.00000e+00  0.00000e+00
   33         145.900    0.00000E+00      0.00000E+00  0.00000e+00  0.00000e+00
   34         148.100    0.00000E+00      0.00000E+00  0.00000e+00  0.00000e+00
   35         150.400    0.00000E+00      0.00000E+00  0.00000e+00  0.00000e+00
   36         152.600    0.00000E+00      0.00000E+00  0.00000e+00  0.00000e+00
   37         155.000    0.00000E+00      0.00000E+00  0.00000e+00  0.00000e+00
   38         157.400    0.00000E+00      0.00000E+00  0.00000e+00  0.00000e+00
   39         160.000    0.00000E+00      0.00000E+00  0.00000e+00  0.00000e+00
   40         162.600    0.00000E+00      0.00000E+00  0.00000e+00  0.00000e+00
   41         165.300    0.00000E+00      0.00000E+00  0.00000e+00  0.00000e+00
   42         168.100    0.00000E+00      0.00000E+00  0.00000e+00  0.00000e+00
   43         170.900    0.00000E+00      0.00000E+00  0.00000e+00  0.00000e+00
   44         173.100    0.00000E+00      0.00000E+00  0.00000e+00  0.00000e+00
   45         174.600    0.00000E+00      0.00000E+00  0.00000e+00  0.00000e+00
   46         176.200    0.00000E+00      0.00000E+00  0.00000e+00  0.00000e+00
   47         177.800    0.00000E+00      0.00000E+00  0.00000e+00  0.00000e+00
   48         179.400    0.00000E+00      0.00000E+00  0.00000e+00  0.00000e+00
   49         181.000    0.00000E+00      0.00000E+00  0.00000e+00  0.00000e+00
   50         182.700    0.00000E+00      0.00000E+00  0.00000e+00  0.00000e+00
   51         184.300    0.00000E+00      0.00000E+00  0.00000e+00  0.00000e+00
   52         186.100    0.00000E+00      0.00000E+00  0.00000e+00  0.00000e+00
   53         187.800    0.00000E+00      0.00000E+00  0.00000e+00  0.00000e+00
   54         189.600    0.00000E+00      0.00000E+00  0.00000e+00  0.00000e+00
   55         191.400    0.00000E+00      0.00000E+00  0.00000e+00  0.00000e+00
   56         193.200    0.00000E+00      0.00000E+00  0.00000e+00  0.00000e+00
   57         195.100    0.00000E+00      0.00000E+00  0.00000e+00  0.00000e+00
   58         197.000    0.00000E+00      0.00000E+00  0.00000e+00  0.00000e+00
   59         199.000    0.00000E+00      0.00000E+00  0.00000e+00  0.00000e+00
   60         201.000    5.12000E-18      0.00000E+00  6.62800e-19  0.00000e+00
   61         203.100    4.74200E-18      0.00000E+00  5.63680e-19  0.00000e+00
   62         205.100    4.38000E-18      0.00000E+00  4.69280e-19  0.00000e+00
   63         207.300    3.94000E-18      0.00000E+00  3.65440e-19  0.00000e+00
   64         209.400    3.52000E-18      0.00000E+00  2.66320e-19  0.00000e+00
   65         211.600    3.24000E-18      0.00000E+00  2.13680e-19  0.00000e+00
   66         213.900    3.01000E-18      0.00000E+00  1.78720e-19  0.00000e+00
   67         216.200    2.82800E-18      0.00000E+00  1.43760e-19  0.00000e+00
   68         218.600    2.68400E-18      0.00000E+00  1.07280e-19  0.00000e+00
   69         221.000    2.56000E-18      0.00000E+00  1.05500e-19  1.18600e-17
   70         223.500    2.46000E-18      0.00000E+00  1.54250e-19  1.15100e-17
   71         226.000    2.34000E-18      0.00000E+00  2.03000e-19  1.11600e-17
   72         228.600    2.18400E-18      0.00000E+00  2.53700e-19  1.07960e-17
   73         231.200    2.02800E-18      0.00000E+00  3.70880e-19  1.04800e-17
   74         233.900    1.86600E-18      0.00000E+00  5.73110e-19  1.02100e-17
   75         236.700    1.66400E-18      0.00000E+00  7.82830e-19  1.01340e-17
   76         239.500    1.44000E-18      0.00000E+00  9.92550e-19  1.01900e-17
   77         242.400    1.20800E-18    375.13153E-21  1.24120e-18  1.06800e-17
   78         245.400  980.00027E-21    365.55381E-21  1.50520e-18  1.13200e-17
   79         248.500  824.99996E-21    342.50465E-21  1.77800e-18  1.22500e-17
   80         251.600  685.99975E-21    344.36183E-21  1.91640e-18  1.32760e-17
   81         254.800  557.99986E-21    346.57945E-21  1.92920e-18  1.44280e-17
   82         258.100  469.39982E-21    349.98017E-21  1.94240e-18  1.54920e-17
   83         261.400  400.40008E-21    370.10408E-21  1.88840e-18  1.62960e-17
   84         264.900  351.40005E-21    389.10617E-21  1.73440e-18  1.67860e-17
   85         268.500  322.00001E-21    429.92821E-21  1.57600e-18  1.64500e-17
   86         272.100  297.39994E-21    478.52807E-21  1.45750e-18  1.56280e-17
   87         275.900  276.40002E-21    541.20101E-21  1.36250e-18  1.42860e-17
   88         279.700  261.19993E-21    624.64141E-21  1.26750e-18  1.25380e-17
   89         283.700  245.19993E-21    736.97879E-21  1.17490e-18  1.05500e-17
   90         287.800  228.80004E-21    882.81523E-21  1.08060e-18  8.61201e-18
   91         292.000  212.00001E-21      1.05659E-18  9.66000e-19  6.80000e-18
   92         296.300  192.20007E-21      1.30625E-18  8.28400e-19  5.18400e-18
   93         300.800  166.80004E-21      1.66315E-18  6.85440e-19  3.82400e-18
   94         305.300  148.80005E-21      2.07269E-18  5.47290e-19  2.85200e-18
   95         310.000  129.99999E-21      2.46231E-18  4.03000e-19  2.10000e-18
   96         315.000  120.00000E-21      2.60099E-18  2.99000e-19  1.60000e-18
   97         320.000  100.00000E-21      2.04279E-18  1.95000e-19  1.40000e-18
   98         325.000   93.00000E-21      3.58917E-18  1.39500e-19  0.00000e+00
   99         330.000   83.99999E-21      4.59244E-18  8.40000e-20  0.00000e+00
   100         335.000  78.00000E-21      5.20021E-18  5.99000e-20  0.00000e+00
   101         340.000  72.00000E-21      2.49128E-18  3.58000e-20  0.00000e+00
   102         345.000  68.00000E-21      5.46596E-18  2.56000e-20  0.00000e+00
   103         350.000  63.00000E-21      6.53554E-18  1.54000e-20  0.00000e+00
   104         355.000  58.00000E-21      2.57875E-18  1.13500e-20  0.00000e+00
   105         360.000  54.00000E-21      6.56929E-18  7.30000e-21  0.00000e+00
   106         365.000  49.00000E-21      3.54040E-18  5.65000e-21  0.00000e+00
   107         370.000  44.00000E-21      4.76884E-18  4.00000e-21  0.00000e+00
   108         375.000  39.00000E-21      4.33733E-18  3.80000e-21  0.00000e+00
   109         380.000  34.00000E-21      3.06773E-18  3.60000e-21  0.00000e+00
   110         385.000  30.00000E-21      4.27154E-18  4.35000e-21  0.00000e+00
   111         390.000  26.00000E-21      2.11888E-18  5.10000e-21  0.00000e+00
   112         395.000  22.00000E-21      2.77880E-18  6.50000e-21  0.00000e+00
   113         400.000  20.00000E-21      2.18909E-18  7.90000e-21  0.00000e+00
   114         405.000  17.00000E-21      1.58979E-18  9.07500e-21  0.00000e+00
   115         410.000  16.00000E-21      1.92762E-18  1.02500e-20  0.00000e+00
   116         415.000  14.00000E-21    772.78604E-21  1.14250e-20  0.00000e+00
   117         420.000  13.00000E-21      1.48233E-18  1.26000e-20  0.00000e+00
   118         425.000  13.00000E-21    303.76735E-21  1.22250e-20  0.00000e+00
   119         430.000  12.00000E-21    510.83169E-21  1.18500e-20  0.00000e+00
   120         435.000  11.00000E-21    580.38063E-21  1.14750e-20  0.00000e+00
   121         440.000  11.00000E-21    193.64425E-21  1.11000e-20  0.00000e+00
   122         445.000  10.00000E-21    257.02603E-21  9.90000e-21  0.00000e+00
   123         450.000   9.10000E-21     75.62256E-21  8.70000e-21  0.00000e+00
   124         455.000   8.00000E-21     65.51621E-21  7.50000e-21  0.00000e+00
   125         460.000   7.00000E-21     90.42678E-21  6.30000e-21  0.00000e+00
   126         465.000   5.90000E-21     59.27985E-21  5.52500e-21  0.00000e+00
   127         470.000   4.90000E-21     84.25763E-21  4.75000e-21  0.00000e+00
   128         475.000   3.80000E-21      5.86679E-21  3.97500e-21  0.00000e+00
   129         480.000   2.90000E-21      0.00000E+00  3.20000e-21  0.00000e+00
   130         485.000   2.20000E-21      0.00000E+00  2.95000e-21  0.00000e+00
   131         490.000   1.40000E-21      0.00000E+00  2.70000e-21  0.00000e+00
   132         495.000 859.99995E-24      0.00000E+00  2.45000e-21  0.00000e+00
   133         500.000 409.99999E-24      0.00000E+00  2.20000e-21  0.00000e+00
   134         505.000   0.00000E+00      0.00000E+00  0.00000e+00  0.00000e+00
   135         510.000   0.00000E+00      0.00000E+00  0.00000e+00  0.00000e+00
   136         515.000   0.00000E+00      0.00000E+00  0.00000e+00  0.00000e+00
   137         520.000   0.00000E+00      0.00000E+00  0.00000e+00  0.00000e+00
   138         525.000   0.00000E+00      0.00000E+00  0.00000e+00  0.00000e+00
   139         530.000   0.00000E+00      0.00000E+00  0.00000e+00  0.00000e+00
   140         535.000   0.00000E+00      0.00000E+00  0.00000e+00  0.00000e+00
   141         540.000   0.00000E+00      0.00000E+00  0.00000e+00  0.00000e+00
   142         545.000   0.00000E+00      0.00000E+00  0.00000e+00  0.00000e+00
   143         550.000   0.00000E+00      0.00000E+00  0.00000e+00  0.00000e+00
   144         555.000   0.00000E+00      0.00000E+00  0.00000e+00  0.00000e+00
   145         560.000   0.00000E+00      0.00000E+00  0.00000e+00  0.00000e+00
   146         565.000   0.00000E+00      0.00000E+00  0.00000e+00  0.00000e+00
   147         570.000   0.00000E+00      0.00000E+00  0.00000e+00  0.00000e+00
   148         575.000   0.00000E+00      0.00000E+00  0.00000e+00  0.00000e+00
   149         580.000   0.00000E+00      0.00000E+00  0.00000e+00  0.00000e+00
   150         585.000   0.00000E+00      0.00000E+00  0.00000e+00  0.00000e+00
   151         590.000   0.00000E+00      0.00000E+00  0.00000e+00  0.00000e+00
   152         595.000   0.00000E+00      0.00000E+00  0.00000e+00  0.00000e+00
   153         600.000   0.00000E+00      0.00000E+00  0.00000e+00  0.00000e+00
   154         605.000   0.00000E+00      0.00000E+00  0.00000e+00  0.00000e+00
   155         610.000   0.00000E+00      0.00000E+00  0.00000e+00  0.00000e+00
   156         615.000   0.00000E+00      0.00000E+00  0.00000e+00  0.00000e+00
   157         620.000   0.00000E+00      0.00000E+00  0.00000e+00  0.00000e+00
   158         625.000   0.00000E+00      0.00000E+00  0.00000e+00  0.00000e+00
   159         630.000   0.00000E+00      0.00000E+00  0.00000e+00  0.00000e+00
   160         635.000   0.00000E+00      0.00000E+00  0.00000e+00  0.00000e+00
   161         640.000   0.00000E+00      0.00000E+00  0.00000e+00  0.00000e+00
   162         645.000   0.00000E+00      0.00000E+00  0.00000e+00  0.00000e+00
   163         650.000   0.00000E+00      0.00000E+00  0.00000e+00  0.00000e+00
   164         655.000   0.00000E+00      0.00000E+00  0.00000e+00  0.00000e+00
   165         660.000   0.00000E+00      0.00000E+00  0.00000e+00  0.00000e+00
   166         665.000   0.00000E+00      0.00000E+00  0.00000e+00  0.00000e+00
   167         670.000   0.00000E+00      0.00000E+00  0.00000e+00  0.00000e+00
   168         675.000   0.00000E+00      0.00000E+00  0.00000e+00  0.00000e+00
   169         680.000   0.00000E+00      0.00000E+00  0.00000e+00  0.00000e+00
   170         685.000   0.00000E+00      0.00000E+00  0.00000e+00  0.00000e+00
   171         690.000   0.00000E+00      0.00000E+00  0.00000e+00  0.00000e+00
   172         695.000   0.00000E+00      0.00000E+00  0.00000e+00  0.00000e+00
   173         700.000   0.00000E+00      0.00000E+00  0.00000e+00  0.00000e+00
   174         705.000   0.00000E+00      0.00000E+00  0.00000e+00  0.00000e+00
   175         710.000   0.00000E+00      0.00000E+00  0.00000e+00  0.00000e+00
   176         715.000   0.00000E+00      0.00000E+00  0.00000e+00  0.00000e+00
   177         720.000   0.00000E+00      0.00000E+00  0.00000e+00  0.00000e+00
   178         725.000   0.00000E+00      0.00000E+00  0.00000e+00  0.00000e+00
   179         730.000   0.00000E+00      0.00000E+00  0.00000e+00  0.00000e+00
   180         735.000   0.00000E+00      0.00000E+00  0.00000e+00  0.00000e+00
   181         740.000   0.00000E+00      0.00000E+00  0.00000e+00  0.00000e+00
   182         745.000   0.00000E+00      0.00000E+00  0.00000e+00  0.00000e+00
   183         750.000   0.00000E+00      0.00000E+00  0.00000e+00  0.00000e+00
   184         755.000   0.00000E+00      0.00000E+00  0.00000e+00  0.00000e+00
   185         760.000   0.00000E+00      0.00000E+00  0.00000e+00  0.00000e+00
   186         765.000   0.00000E+00      0.00000E+00  0.00000e+00  0.00000e+00
   187         770.000   0.00000E+00      0.00000E+00  0.00000e+00  0.00000e+00
   188         775.000   0.00000E+00      0.00000E+00  0.00000e+00  0.00000e+00
   189         780.000   0.00000E+00      0.00000E+00  0.00000e+00  0.00000e+00
   190         785.000   0.00000E+00      0.00000E+00  0.00000e+00  0.00000e+00
   191         790.000   0.00000E+00      0.00000E+00  0.00000e+00  0.00000e+00
   192         795.000   0.00000E+00      0.00000E+00  0.00000e+00  0.00000e+00
   193         800.000   0.00000E+00      0.00000E+00  0.00000e+00  0.00000e+00
   194         805.000   0.00000E+00      0.00000E+00  0.00000e+00  0.00000e+00
   195         810.000   0.00000E+00      0.00000E+00  0.00000e+00  0.00000e+00
   196         815.000   0.00000E+00      0.00000E+00  0.00000e+00  0.00000e+00
   197         820.000   0.00000E+00      0.00000E+00  0.00000e+00  0.00000e+00
   198         825.000   0.00000E+00      0.00000E+00  0.00000e+00  0.00000e+00
   199         830.000   0.00000E+00      0.00000E+00  0.00000e+00  0.00000e+00
   200         835.000   0.00000E+00      0.00000E+00  0.00000e+00  0.00000e+00
   201         840.000   0.00000E+00      0.00000E+00  0.00000e+00  0.00000e+00
   202         845.000   0.00000E+00      0.00000E+00  0.00000e+00  0.00000e+00
   203         850.000   0.00000E+00      0.00000E+00  0.00000e+00  0.00000e+00
					   
					   
					   
					   
					   
# brono2: jpl97 (burkholder)
# oclo: averaged from Wahner(87) for T=204K

