#   Interval Wave (nm)         AN2O        AN2O5        AHNO2             APNA        ACNIT
          1     121.5    0.000E+00    0.00000E+00  0.000E+00      0.000E+00    0.000E+00
          2     116.7    0.000E+00    0.00000E+00  0.000E+00      0.000E+00    0.000E+00
          3     117.3    0.000E+00    0.00000E+00  0.000E+00      0.000E+00    0.000E+00
          4     117.9    0.000E+00    0.00000E+00  0.000E+00      0.000E+00    0.000E+00
          5     118.7    0.000E+00    0.00000E+00  0.000E+00      0.000E+00    0.000E+00
          6     119.4    0.000E+00    0.00000E+00  0.000E+00      0.000E+00    0.000E+00
          7     120.2    0.000E+00    0.00000E+00  0.000E+00      0.000E+00    0.000E+00
          8     120.8    0.000E+00    0.00000E+00  0.000E+00      0.000E+00    0.000E+00
          9     121.6    0.000E+00    0.00000E+00  0.000E+00      0.000E+00    0.000E+00
         10     122.3    0.000E+00    0.00000E+00  0.000E+00      0.000E+00    0.000E+00
         11     123.1    0.000E+00    0.00000E+00  0.000E+00      0.000E+00    0.000E+00
         12     123.8    0.000E+00    0.00000E+00  0.000E+00      0.000E+00    0.000E+00
         13     124.6    0.000E+00    0.00000E+00  0.000E+00      0.000E+00    0.000E+00
         14     125.4    0.000E+00    0.00000E+00  0.000E+00      0.000E+00    0.000E+00
         15     126.2    0.000E+00    0.00000E+00  0.000E+00      0.000E+00    0.000E+00
         16     127.0    0.000E+00    0.00000E+00  0.000E+00      0.000E+00    0.000E+00
         17     127.8    0.000E+00    0.00000E+00  0.000E+00      0.000E+00    0.000E+00
         18     128.6    0.000E+00    0.00000E+00  0.000E+00      0.000E+00    0.000E+00
         19     129.4    0.000E+00    0.00000E+00  0.000E+00      0.000E+00    0.000E+00
         20     130.3    0.000E+00    0.00000E+00  0.000E+00      0.000E+00    0.000E+00
         21     131.1    0.000E+00    0.00000E+00  0.000E+00      0.000E+00    0.000E+00
         22     132.0    0.000E+00    0.00000E+00  0.000E+00      0.000E+00    0.000E+00
         23     132.9    0.000E+00    0.00000E+00  0.000E+00      0.000E+00    0.000E+00
         24     133.8    0.000E+00    0.00000E+00  0.000E+00      0.000E+00    0.000E+00
         25     134.6    0.000E+00    0.00000E+00  0.000E+00      0.000E+00    0.000E+00
         26     135.6    0.000E+00    0.00000E+00  0.000E+00      0.000E+00    0.000E+00
         27     136.5    0.000E+00    0.00000E+00  0.000E+00      0.000E+00    0.000E+00
         28     137.4    0.000E+00    0.00000E+00  0.000E+00      0.000E+00    0.000E+00
         29     138.4    0.000E+00    0.00000E+00  0.000E+00      0.000E+00    0.000E+00
         30     139.9    0.000E+00    0.00000E+00  0.000E+00      0.000E+00    0.000E+00
         31     141.8    0.000E+00    0.00000E+00  0.000E+00      0.000E+00    0.000E+00
         32     143.9    0.000E+00    0.00000E+00  0.000E+00      0.000E+00    0.000E+00
         33     145.9    0.000E+00    0.00000E+00  0.000E+00      0.000E+00    0.000E+00
         34     148.1    0.000E+00    0.00000E+00  0.000E+00      0.000E+00    0.000E+00
         35     150.4    0.000E+00    0.00000E+00  0.000E+00      0.000E+00    0.000E+00
         36     152.6    0.000E+00    0.00000E+00  0.000E+00      0.000E+00    0.000E+00
         37     155.0    0.000E+00    0.00000E+00  0.000E+00      0.000E+00    0.000E+00
         38     157.4    0.000E+00    0.00000E+00  0.000E+00      0.000E+00    0.000E+00
         39     160.0    0.000E+00    0.00000E+00  0.000E+00      0.000E+00    0.000E+00
         40     162.6    0.000E+00    0.00000E+00  0.000E+00      0.000E+00    0.000E+00
         41     165.3    0.000E+00    0.00000E+00  0.000E+00      0.000E+00    0.000E+00
         42     168.1    0.000E+00    0.00000E+00  0.000E+00      0.000E+00    0.000E+00
         43     170.9    0.000E+00    0.00000E+00  0.000E+00      0.000E+00    0.000E+00
         44     173.1    0.000E+00    0.00000E+00  0.000E+00      0.000E+00    0.000E+00
         45     174.6    0.125E-18    0.00000E+00  0.000E+00      0.000E+00    0.000E+00
         46     176.2    0.133E-18    0.00000E+00  0.000E+00      0.000E+00    0.000E+00
         47     177.8    0.140E-18    0.00000E+00  0.000E+00      0.000E+00    0.000E+00
         48     179.4    0.145E-18    0.00000E+00  0.000E+00      0.000E+00    0.000E+00
         49     181.0    0.146E-18    0.00000E+00  0.000E+00      0.000E+00    0.000E+00
         50     182.7    0.145E-18    0.00000E+00  0.000E+00      0.000E+00    0.000E+00
         51     184.3    0.143E-18    0.00000E+00  0.000E+00      0.000E+00    0.000E+00
         52     186.1    0.138E-18    0.00000E+00  0.000E+00      0.000E+00    0.000E+00
         53     187.8    0.129E-18    0.00000E+00  0.000E+00      0.000E+00    0.000E+00
         54     189.6    0.118E-18    0.00000E+00  0.000E+00      0.105E-16    0.575E-17
         55     191.4    0.100E-18    0.00000E+00  0.000E+00      0.960E-17    0.470E-17
         56     193.2    0.900E-19    0.00000E+00  0.000E+00      0.870E-17    0.390E-17
         57     195.1    0.750E-19    0.00000E+00  0.000E+00      0.780E-17    0.358E-17
         58     197.0    0.590E-19    0.00000E+00  0.000E+00      0.690E-17    0.325E-17
         59     199.0    0.460E-19    0.00000E+00  0.000E+00      0.600E-17    0.306E-17
         60     201.0    0.350E-19    9.00000E-18  0.000E+00      0.520E-17    0.288E-17
         61     203.1    0.260E-19    8.58000E-18  0.000E+00      0.440E-17    0.286E-17
         62     205.1    0.195E-19    8.14800E-18  0.000E+00      0.365E-17    0.293E-17
         63     207.3    0.135E-19    7.00400E-18  0.000E+00      0.305E-17    0.310E-17
         64     209.4    0.900E-20    5.91200E-18  0.000E+00      0.250E-17    0.325E-17
         65     211.6    0.560E-20    4.99200E-18  0.000E+00      0.210E-17    0.345E-17
         66     213.9    0.350E-20    4.11800E-18  0.000E+00      0.175E-17    0.357E-17
         67     216.2    0.210E-20    3.34000E-18  0.000E+00      0.150E-17    0.360E-17
         68     218.6    0.125E-20    2.62000E-18  0.000E+00      0.130E-17    0.353E-17
         69     221.0    0.750E-21    2.04800E-18  0.000E+00      0.115E-17    0.352E-17
         70     223.5    0.440E-21    1.66800E-18  0.000E+00      0.100E-17    0.374E-17
         71     226.0    0.230E-21    1.35000E-18  0.000E+00      0.910E-18    0.325E-17
         72     228.6    0.100E-21    1.11600E-18  0.000E+00      0.840E-18    0.250E-17
         73     231.2    0.700E-22  937.20018E-21  0.000E+00      0.780E-18    0.190E-17
         74     233.9    0.365E-22  818.40025E-21  0.000E+00      0.700E-18    0.155E-17
         75     236.7    0.215E-22  719.00007E-21  0.000E+00      0.650E-18    0.130E-17
         76     239.5    0.115E-22  634.99998E-21  0.000E+00      0.600E-18    0.105E-17
         77     242.4    0.000E+00  572.00010E-21  0.000E+00      0.540E-18    0.880E-18
         78     245.4    0.000E+00  510.40016E-21  0.000E+00      0.485E-18    0.730E-18
         79     248.5    0.000E+00  435.99997E-21  0.000E+00      0.430E-18    0.600E-18
         80     251.6    0.000E+00  374.39991E-21  0.000E+00      0.390E-18    0.500E-18
         81     254.8    0.000E+00  323.19994E-21  0.000E+00      0.350E-18    0.420E-18
         82     258.1    0.000E+00  282.79992E-21  0.000E+00      0.305E-18    0.360E-18
         83     261.4    0.000E+00  243.20007E-21  0.000E+00      0.260E-18    0.280E-18
         84     264.9    0.000E+00  201.20006E-21  0.000E+00      0.225E-18    0.230E-18
         85     268.5    0.000E+00  172.70000E-21  0.000E+00      0.190E-18    0.200E-18
         86     272.1    0.000E+00  147.97996E-21  0.000E+00      0.160E-18    0.170E-18
         87     275.9    0.000E+00  127.66001E-21  0.000E+00      0.130E-18    0.140E-18
         88     279.7    0.000E+00  117.77997E-21  0.000E+00      0.940E-19    0.120E-18
         89     283.7    0.000E+00    0.00000E+00  0.000E+00      0.690E-19    0.830E-19
         90     287.8    0.000E+00    0.00000E+00  0.000E+00      0.500E-19    0.635E-19
         91     292.0    0.000E+00    0.00000E+00  0.000E+00      0.335E-19    0.475E-19
         92     296.3    0.000E+00    0.00000E+00  0.000E+00      0.230E-19    0.340E-19
         93     300.8    0.000E+00    0.00000E+00  0.000E+00      0.150E-19    0.246E-19
         94     305.3    0.000E+00    0.00000E+00  0.000E+00      0.105E-19    0.177E-19
         95     310.0    0.000E+00    0.00000E+00  0.000E+00      0.700E-20    0.128E-19
         96     315.0    0.000E+00    0.00000E+00  0.420E-20      0.400E-20    0.892E-20
         97     320.0    0.000E+00    0.00000E+00  0.210E-19      0.300E-20    0.630E-20
         98     325.0    0.000E+00    0.00000E+00  0.404E-19      0.200E-20    0.463E-20
         99     330.0    0.000E+00    0.00000E+00  0.729E-19      0.100E-20    0.353E-20
        100     335.0    0.000E+00    0.00000E+00  0.645E-19      0.000E+00    0.283E-20
        101     340.0    0.000E+00    0.00000E+00  0.105E-18      0.000E+00    0.246E-20
        102     345.0    0.000E+00    0.00000E+00  0.854E-19      0.000E+00    0.214E-20
        103     350.0    0.000E+00    0.00000E+00  0.683E-19      0.000E+00    0.198E-20
        104     355.0    0.000E+00    0.00000E+00  0.246E-18      0.000E+00    0.182E-20
        105     360.0    0.000E+00    0.00000E+00  0.683E-19      0.000E+00    0.170E-20
        106     365.0    0.000E+00    0.00000E+00  0.133E-18      0.000E+00    0.155E-20
        107     370.0    0.000E+00    0.00000E+00  0.119E-18      0.000E+00    0.142E-20
        108     375.0    0.000E+00    0.00000E+00  0.270E-19      0.000E+00    0.128E-20
        109     380.0    0.000E+00    0.00000E+00  0.778E-19      0.000E+00    0.113E-20
        110     385.0    0.000E+00    0.00000E+00  0.190E-18      0.000E+00    0.980E-21
        111     390.0    0.000E+00    0.00000E+00  0.120E-19      0.000E+00    0.900E-21
        112     395.0    0.000E+00    0.00000E+00  0.000E+00      0.000E+00    0.690E-21
        113     400.0    0.000E+00    0.00000E+00  0.000E+00      0.000E+00    0.560E-21
        114     405.0    0.000E+00    0.00000E+00  0.000E+00      0.000E+00    0.550E-21
        115     410.0    0.000E+00    0.00000E+00  0.000E+00      0.000E+00    0.440E-21
        116     415.0    0.000E+00    0.00000E+00  0.000E+00      0.000E+00    0.350E-21
        117     420.0    0.000E+00    0.00000E+00  0.000E+00      0.000E+00    0.270E-21
        118     425.0    0.000E+00    0.00000E+00  0.000E+00      0.000E+00    0.200E-21
        119     430.0    0.000E+00    0.00000E+00  0.000E+00      0.000E+00    0.160E-21
        120     435.0    0.000E+00    0.00000E+00  0.000E+00      0.000E+00    0.130E-21
        121     440.0    0.000E+00    0.00000E+00  0.000E+00      0.000E+00    0.900E-22
        122     445.0    0.000E+00    0.00000E+00  0.000E+00      0.000E+00    0.700E-22
        123     450.0    0.000E+00    0.00000E+00  0.000E+00      0.000E+00    0.500E-22
        124     455.0    0.000E+00    0.00000E+00  0.000E+00      0.000E+00    0.000E+00
        125     460.0    0.000E+00    0.00000E+00  0.000E+00      0.000E+00    0.000E+00
        126     465.0    0.000E+00    0.00000E+00  0.000E+00      0.000E+00    0.000E+00
        127     470.0    0.000E+00    0.00000E+00  0.000E+00      0.000E+00    0.000E+00
        128     475.0    0.000E+00    0.00000E+00  0.000E+00      0.000E+00    0.000E+00
        129     480.0    0.000E+00    0.00000E+00  0.000E+00      0.000E+00    0.000E+00
        130     485.0    0.000E+00    0.00000E+00  0.000E+00      0.000E+00    0.000E+00
        131     490.0    0.000E+00    0.00000E+00  0.000E+00      0.000E+00    0.000E+00
        132     495.0    0.000E+00    0.00000E+00  0.000E+00      0.000E+00    0.000E+00
        133     500.0    0.000E+00    0.00000E+00  0.000E+00      0.000E+00    0.000E+00
        134     505.0    0.000E+00    0.00000E+00  0.000E+00      0.000E+00    0.000E+00
        135     510.0    0.000E+00    0.00000E+00  0.000E+00      0.000E+00    0.000E+00
        136     515.0    0.000E+00    0.00000E+00  0.000E+00      0.000E+00    0.000E+00
        137     520.0    0.000E+00    0.00000E+00  0.000E+00      0.000E+00    0.000E+00
        138     525.0    0.000E+00    0.00000E+00  0.000E+00      0.000E+00    0.000E+00
        139     530.0    0.000E+00    0.00000E+00  0.000E+00      0.000E+00    0.000E+00
        140     535.0    0.000E+00    0.00000E+00  0.000E+00      0.000E+00    0.000E+00
        141     540.0    0.000E+00    0.00000E+00  0.000E+00      0.000E+00    0.000E+00
        142     545.0    0.000E+00    0.00000E+00  0.000E+00      0.000E+00    0.000E+00
        143     550.0    0.000E+00    0.00000E+00  0.000E+00      0.000E+00    0.000E+00
        144     555.0    0.000E+00    0.00000E+00  0.000E+00      0.000E+00    0.000E+00
        145     560.0    0.000E+00    0.00000E+00  0.000E+00      0.000E+00    0.000E+00
        146     565.0    0.000E+00    0.00000E+00  0.000E+00      0.000E+00    0.000E+00
        147     570.0    0.000E+00    0.00000E+00  0.000E+00      0.000E+00    0.000E+00
        148     575.0    0.000E+00    0.00000E+00  0.000E+00      0.000E+00    0.000E+00
        149     580.0    0.000E+00    0.00000E+00  0.000E+00      0.000E+00    0.000E+00
        150     585.0    0.000E+00    0.00000E+00  0.000E+00      0.000E+00    0.000E+00
        151     590.0    0.000E+00    0.00000E+00  0.000E+00      0.000E+00    0.000E+00
        152     595.0    0.000E+00    0.00000E+00  0.000E+00      0.000E+00    0.000E+00
        153     600.0    0.000E+00    0.00000E+00  0.000E+00      0.000E+00    0.000E+00
        154     605.0    0.000E+00    0.00000E+00  0.000E+00      0.000E+00    0.000E+00
        155     610.0    0.000E+00    0.00000E+00  0.000E+00      0.000E+00    0.000E+00
        156     615.0    0.000E+00    0.00000E+00  0.000E+00      0.000E+00    0.000E+00
        157     620.0    0.000E+00    0.00000E+00  0.000E+00      0.000E+00    0.000E+00
        158     625.0    0.000E+00    0.00000E+00  0.000E+00      0.000E+00    0.000E+00
        159     630.0    0.000E+00    0.00000E+00  0.000E+00      0.000E+00    0.000E+00
        160     635.0    0.000E+00    0.00000E+00  0.000E+00      0.000E+00    0.000E+00
        161     640.0    0.000E+00    0.00000E+00  0.000E+00      0.000E+00    0.000E+00
        162     645.0    0.000E+00    0.00000E+00  0.000E+00      0.000E+00    0.000E+00
        163     650.0    0.000E+00    0.00000E+00  0.000E+00      0.000E+00    0.000E+00
        164     655.0    0.000E+00    0.00000E+00  0.000E+00      0.000E+00    0.000E+00
        165     660.0    0.000E+00    0.00000E+00  0.000E+00      0.000E+00    0.000E+00
        166     665.0    0.000E+00    0.00000E+00  0.000E+00      0.000E+00    0.000E+00
        167     670.0    0.000E+00    0.00000E+00  0.000E+00      0.000E+00    0.000E+00
        168     675.0    0.000E+00    0.00000E+00  0.000E+00      0.000E+00    0.000E+00
        169     680.0    0.000E+00    0.00000E+00  0.000E+00      0.000E+00    0.000E+00
        170     685.0    0.000E+00    0.00000E+00  0.000E+00      0.000E+00    0.000E+00
        171     690.0    0.000E+00    0.00000E+00  0.000E+00      0.000E+00    0.000E+00
        172     695.0    0.000E+00    0.00000E+00  0.000E+00      0.000E+00    0.000E+00
        173     700.0    0.000E+00    0.00000E+00  0.000E+00      0.000E+00    0.000E+00
        174     705.0    0.000E+00    0.00000E+00  0.000E+00      0.000E+00    0.000E+00
        175     710.0    0.000E+00    0.00000E+00  0.000E+00      0.000E+00    0.000E+00
        176     715.0    0.000E+00    0.00000E+00  0.000E+00      0.000E+00    0.000E+00
        177     720.0    0.000E+00    0.00000E+00  0.000E+00      0.000E+00    0.000E+00
        178     725.0    0.000E+00    0.00000E+00  0.000E+00      0.000E+00    0.000E+00
        179     730.0    0.000E+00    0.00000E+00  0.000E+00      0.000E+00    0.000E+00
        180     735.0    0.000E+00    0.00000E+00  0.000E+00      0.000E+00    0.000E+00
        181     740.0    0.000E+00    0.00000E+00  0.000E+00      0.000E+00    0.000E+00
        182     745.0    0.000E+00    0.00000E+00  0.000E+00      0.000E+00    0.000E+00
        183     750.0    0.000E+00    0.00000E+00  0.000E+00      0.000E+00    0.000E+00
        184     755.0    0.000E+00    0.00000E+00  0.000E+00      0.000E+00    0.000E+00
        185     760.0    0.000E+00    0.00000E+00  0.000E+00      0.000E+00    0.000E+00
        186     765.0    0.000E+00    0.00000E+00  0.000E+00      0.000E+00    0.000E+00
        187     770.0    0.000E+00    0.00000E+00  0.000E+00      0.000E+00    0.000E+00
        188     775.0    0.000E+00    0.00000E+00  0.000E+00      0.000E+00    0.000E+00
        189     780.0    0.000E+00    0.00000E+00  0.000E+00      0.000E+00    0.000E+00
        190     785.0    0.000E+00    0.00000E+00  0.000E+00      0.000E+00    0.000E+00
        191     790.0    0.000E+00    0.00000E+00  0.000E+00      0.000E+00    0.000E+00
        192     795.0    0.000E+00    0.00000E+00  0.000E+00      0.000E+00    0.000E+00
        193     800.0    0.000E+00    0.00000E+00  0.000E+00      0.000E+00    0.000E+00
        194     805.0    0.000E+00    0.00000E+00  0.000E+00      0.000E+00    0.000E+00
        195     810.0    0.000E+00    0.00000E+00  0.000E+00      0.000E+00    0.000E+00
        196     815.0    0.000E+00    0.00000E+00  0.000E+00      0.000E+00    0.000E+00
        197     820.0    0.000E+00    0.00000E+00  0.000E+00      0.000E+00    0.000E+00
        198     825.0    0.000E+00    0.00000E+00  0.000E+00      0.000E+00    0.000E+00
        199     830.0    0.000E+00    0.00000E+00  0.000E+00      0.000E+00    0.000E+00
        200     835.0    0.000E+00    0.00000E+00  0.000E+00      0.000E+00    0.000E+00
        201     840.0    0.000E+00    0.00000E+00  0.000E+00      0.000E+00    0.000E+00
        202     845.0    0.000E+00    0.00000E+00  0.000E+00      0.000E+00    0.000E+00
        203     850.0    0.000E+00    0.00000E+00  0.000E+00      0.000E+00    0.000E+00

# n2o5:jpl97 (Yao) fuer lambda<285
