   Interval Wave (nm)        QENO2         ANO20       TDEPNO2      
          1     121.5    1.00000E+00   0.00000E+00      0.00000E+00 
          2     116.7    1.00000E+00   0.00000E+00      0.00000E+00
          3     117.3    1.00000E+00   0.00000E+00      0.00000E+00
          4     117.9    1.00000E+00   0.00000E+00      0.00000E+00
          5     118.7    1.00000E+00   0.00000E+00      0.00000E+00
          6     119.4    1.00000E+00   0.00000E+00      0.00000E+00
          7     120.2    1.00000E+00   0.00000E+00      0.00000E+00
          8     120.8    1.00000E+00   0.00000E+00      0.00000E+00
          9     121.6    1.00000E+00   0.00000E+00      0.00000E+00
         10     122.3    1.00000E+00   0.00000E+00      0.00000E+00
         11     123.1    1.00000E+00   0.00000E+00      0.00000E+00
         12     123.8    1.00000E+00   0.00000E+00      0.00000E+00
         13     124.6    1.00000E+00   0.00000E+00      0.00000E+00
         14     125.4    1.00000E+00   0.00000E+00      0.00000E+00
         15     126.2    1.00000E+00   0.00000E+00      0.00000E+00
         16     127.0    1.00000E+00   0.00000E+00      0.00000E+00
         17     127.8    1.00000E+00   0.00000E+00      0.00000E+00
         18     128.6    1.00000E+00   0.00000E+00      0.00000E+00
         19     129.4    1.00000E+00   0.00000E+00      0.00000E+00
         20     130.3    1.00000E+00   0.00000E+00      0.00000E+00
         21     131.1    1.00000E+00   0.00000E+00      0.00000E+00
         22     132.0    1.00000E+00   0.00000E+00      0.00000E+00
         23     132.9    1.00000E+00   0.00000E+00      0.00000E+00
         24     133.8    1.00000E+00   0.00000E+00      0.00000E+00
         25     134.6    1.00000E+00   0.00000E+00      0.00000E+00
         26     135.6    1.00000E+00   0.00000E+00      0.00000E+00
         27     136.5    1.00000E+00   0.00000E+00      0.00000E+00
         28     137.4    1.00000E+00   0.00000E+00      0.00000E+00
         29     138.4    1.00000E+00   0.00000E+00      0.00000E+00
         30     139.9    1.00000E+00   0.00000E+00      0.00000E+00
         31     141.8    1.00000E+00   0.00000E+00      0.00000E+00
         32     143.9    1.00000E+00   0.00000E+00      0.00000E+00
         33     145.9    1.00000E+00   0.00000E+00      0.00000E+00
         34     148.1    1.00000E+00   0.00000E+00      0.00000E+00
         35     150.4    1.00000E+00   0.00000E+00      0.00000E+00
         36     152.6    1.00000E+00   0.00000E+00      0.00000E+00
         37     155.0    1.00000E+00   0.00000E+00      0.00000E+00
         38     157.4    1.00000E+00   0.00000E+00      0.00000E+00
         39     160.0    1.00000E+00   0.00000E+00      0.00000E+00
         40     162.6    1.00000E+00   0.00000E+00      0.00000E+00
         41     165.3    1.00000E+00   0.00000E+00      0.00000E+00
         42     168.1    1.00000E+00   0.00000E+00      0.00000E+00
         43     170.9    1.00000E+00   0.00000E+00      0.00000E+00
         44     173.1    1.00000E+00   0.00000E+00      0.00000E+00
         45     174.6    1.00000E+00   0.00000E+00      0.00000E+00
         46     176.2    1.00000E+00   0.00000E+00      0.00000E+00
         47     177.8    1.00000E+00   0.00000E+00      0.00000E+00
         48     179.4    1.00000E+00   0.00000E+00      0.00000E+00
         49     181.0    1.00000E+00   0.00000E+00      0.00000E+00
         50     182.7    1.00000E+00   0.00000E+00      0.00000E+00
         51     184.3    1.00000E+00   0.00000E+00      0.00000E+00
         52     186.1    1.00000E+00   0.00000E+00      0.00000E+00
         53     187.8    1.00000E+00   0.00000E+00      0.00000E+00
         54     189.6    1.00000E+00   0.00000E+00      0.00000E+00
         55     191.4    1.00000E+00   0.00000E+00      0.00000E+00
         56     193.2    1.00000E+00   0.00000E+00      0.00000E+00
         57     195.1    1.00000E+00   0.00000E+00      0.00000E+00
         58     197.0    1.00000E+00   0.00000E+00      0.00000E+00
         59     199.0    1.00000E+00   0.00000E+00      0.00000E+00
         60     201.0    1.00000E+00   0.00000E+00      0.00000E+00
         61     203.1    1.00000E+00  414.50000E-21       0.00000E+00
         62     205.1    1.00000E+00  447.79996E-21       0.00000E+00
         63     207.3    1.00000E+00  445.40000E-21       0.00000E+00
         64     209.4    1.00000E+00  464.09997E-21       0.00000E+00
         65     211.6    1.00000E+00  486.60001E-21       0.00000E+00
         66     213.9    1.00000E+00  481.79998E-21       0.00000E+00
         67     216.2    1.00000E+00  502.20001E-21       0.00000E+00
         68     218.6    1.00000E+00  444.09998E-21       0.00000E+00
         69     221.0    1.00000E+00  471.30001E-21       0.00000E+00
         70     223.5    1.00000E+00  377.19999E-21       0.00000E+00
         71     226.0    1.00000E+00  392.89999E-21       0.00000E+00
         72     228.6    1.00000E+00  273.99998E-21       0.00000E+00
         73     231.2    1.00000E+00  277.80000E-21       0.00000E+00
         74     233.9    1.00000E+00  168.89999E-21       0.00000E+00
         75     236.7    1.00000E+00  161.79999E-21       0.00000E+00
         76     239.5    1.00000E+00   88.12000E-21       0.00000E+00
         77     242.4    1.00000E+00   74.72000E-21       0.00000E+00
         78     245.4    1.00000E+00   39.09000E-21       0.00000E+00
         79     248.5    1.00000E+00   27.53000E-21       0.00000E+00
         80     251.6    1.00000E+00   20.07000E-21       0.00000E+00
         81     254.8    1.00000E+00   19.73000E-21       0.00000E+00
         82     258.1    1.00000E+00   21.11000E-21       0.00000E+00
         83     261.4    1.00000E+00   23.57000E-21       0.00000E+00
         84     264.9    1.00000E+00   26.98000E-21       0.00000E+00
         85     268.5    1.00000E+00   32.47000E-21       0.00000E+00
         86     272.1    1.00000E+00   37.85000E-21       0.00000E+00
         87     275.9    1.00000E+00  50.30000E-21      7.50000E-24
         88     279.7    1.00000E+00  58.80000E-21      8.20000E-24
         89     283.7    1.00000E+00  70.00000E-21     -5.30000E-24
         90     287.8  999.42172E-03   81.49999E-21     -4.30000E-24
         91     292.0  998.61181E-03   97.20000E-21     -3.10000E-24
         92     296.3  997.76137E-03   115.39999E-21   -16.20000E-24
         93     300.8  996.87779E-03   134.40000E-21   -28.40000E-24
         94     305.3  995.96739E-03   158.90000E-21   -35.70000E-24
         95     310.0  995.00000E-03   186.69999E-21   -53.60000E-24
         96     315.0  994.00008E-03   215.30000E-21   -68.60000E-24
         97     320.0  992.99991E-03   247.69998E-21   -78.60001E-24
         98     325.0  991.99998E-03   280.69999E-21  -110.50000E-24
         99     330.0  991.00000E-03   313.29998E-21  -135.50001E-24
        100     335.0  989.99995E-03   342.50000E-21  -127.70000E-24
        101     340.0  989.00002E-03   379.79998E-21  -161.20000E-24
        102     345.0  988.00004E-03   406.50000E-21  -189.00000E-24
        103     350.0  986.99999E-03   431.29998E-21  -121.90000E-24
        104     355.0  985.99994E-03   471.69995E-21  -192.10001E-24
        105     360.0  984.00003E-03   483.30002E-21  -109.50000E-24
        106     365.0  982.99998E-03   516.59999E-21  -132.20001E-24
        107     370.0  981.00007E-03   531.49999E-21  -110.20001E-24
        108     375.0  978.99997E-03   550.79998E-21   -80.60000E-24
        109     380.0  974.40004E-03   564.39996E-21   -86.70000E-24
        110     385.0  969.00004E-03   575.69997E-21   -94.50000E-24
        111     390.0  960.39999E-03   592.69998E-21   -92.30000E-24
        112     395.0  927.39999E-03   584.49999E-21   -73.80000E-24
        113     400.0  693.99995E-03   602.09996E-21   -59.90000E-24
        114     405.0  354.99999E-03   578.09999E-21   -54.50000E-24
        115     410.0  134.40000E-03   599.90002E-21  -112.89999E-24
        116     415.0   59.80000E-03   565.09996E-21   100.00001E-27
        117     420.0   18.20000E-03   581.19995E-21  -120.80000E-24
        118     425.0  800.00004E-06    0.00000E+00     0.00000E+00
        119     430.0   0.00000E+00    0.00000E+00     0.00000E+00
        120     435.0   0.00000E+00    0.00000E+00     0.00000E+00
        121     440.0   0.00000E+00    0.00000E+00     0.00000E+00
        122     445.0   0.00000E+00    0.00000E+00     0.00000E+00
        123     450.0   0.00000E+00    0.00000E+00     0.00000E+00
        124     455.0   0.00000E+00    0.00000E+00     0.00000E+00
        125     460.0   0.00000E+00    0.00000E+00     0.00000E+00
        126     465.0   0.00000E+00    0.00000E+00     0.00000E+00
        127     470.0   0.00000E+00    0.00000E+00     0.00000E+00
        128     475.0   0.00000E+00    0.00000E+00     0.00000E+00
        129     480.0   0.00000E+00    0.00000E+00     0.00000E+00
        130     485.0   0.00000E+00    0.00000E+00     0.00000E+00
        131     490.0   0.00000E+00    0.00000E+00     0.00000E+00
        132     495.0   0.00000E+00    0.00000E+00     0.00000E+00
        133     500.0   0.00000E+00    0.00000E+00     0.00000E+00
        134     505.0   0.00000E+00    0.00000E+00     0.00000E+00
        135     510.0   0.00000E+00    0.00000E+00     0.00000E+00
        136     515.0   0.00000E+00    0.00000E+00     0.00000E+00
        137     520.0   0.00000E+00    0.00000E+00     0.00000E+00
        138     525.0   0.00000E+00    0.00000E+00     0.00000E+00
        139     530.0   0.00000E+00    0.00000E+00     0.00000E+00
        140     535.0   0.00000E+00    0.00000E+00     0.00000E+00
        141     540.0   0.00000E+00    0.00000E+00     0.00000E+00
        142     545.0   0.00000E+00    0.00000E+00     0.00000E+00
        143     550.0   0.00000E+00    0.00000E+00     0.00000E+00
        144     555.0   0.00000E+00    0.00000E+00     0.00000E+00
        145     560.0   0.00000E+00    0.00000E+00     0.00000E+00
        146     565.0   0.00000E+00    0.00000E+00     0.00000E+00
        147     570.0   0.00000E+00    0.00000E+00     0.00000E+00
        148     575.0   0.00000E+00    0.00000E+00     0.00000E+00
        149     580.0   0.00000E+00    0.00000E+00     0.00000E+00
        150     585.0   0.00000E+00    0.00000E+00     0.00000E+00
        151     590.0   0.00000E+00    0.00000E+00     0.00000E+00
        152     595.0   0.00000E+00    0.00000E+00     0.00000E+00
        153     600.0   0.00000E+00    0.00000E+00     0.00000E+00
        154     605.0   0.00000E+00    0.00000E+00     0.00000E+00
        155     610.0   0.00000E+00    0.00000E+00     0.00000E+00
        156     615.0   0.00000E+00    0.00000E+00     0.00000E+00
        157     620.0   0.00000E+00    0.00000E+00     0.00000E+00
        158     625.0   0.00000E+00    0.00000E+00     0.00000E+00
        159     630.0   0.00000E+00    0.00000E+00     0.00000E+00
        160     635.0   0.00000E+00    0.00000E+00     0.00000E+00
        161     640.0   0.00000E+00    0.00000E+00     0.00000E+00
        162     645.0   0.00000E+00    0.00000E+00     0.00000E+00
        163     650.0   0.00000E+00    0.00000E+00     0.00000E+00
        164     655.0   0.00000E+00    0.00000E+00     0.00000E+00
        165     660.0   0.00000E+00    0.00000E+00     0.00000E+00
        166     665.0   0.00000E+00    0.00000E+00     0.00000E+00
        167     670.0   0.00000E+00    0.00000E+00     0.00000E+00
        168     675.0   0.00000E+00    0.00000E+00     0.00000E+00
        169     680.0   0.00000E+00    0.00000E+00     0.00000E+00
        170     685.0   0.00000E+00    0.00000E+00     0.00000E+00
        171     690.0   0.00000E+00    0.00000E+00     0.00000E+00
        172     695.0   0.00000E+00    0.00000E+00     0.00000E+00
        173     700.0   0.00000E+00    0.00000E+00     0.00000E+00
        174     705.0   0.00000E+00    0.00000E+00     0.00000E+00
        175     710.0   0.00000E+00    0.00000E+00     0.00000E+00
        176     715.0   0.00000E+00    0.00000E+00     0.00000E+00
        177     720.0   0.00000E+00    0.00000E+00     0.00000E+00
        178     725.0   0.00000E+00    0.00000E+00     0.00000E+00
        179     730.0   0.00000E+00    0.00000E+00     0.00000E+00
        180     735.0   0.00000E+00    0.00000E+00     0.00000E+00
        181     740.0   0.00000E+00    0.00000E+00     0.00000E+00
        182     745.0   0.00000E+00    0.00000E+00     0.00000E+00
        183     750.0   0.00000E+00    0.00000E+00     0.00000E+00
        184     755.0   0.00000E+00    0.00000E+00     0.00000E+00
        185     760.0   0.00000E+00    0.00000E+00     0.00000E+00
        186     765.0   0.00000E+00    0.00000E+00     0.00000E+00
        187     770.0   0.00000E+00    0.00000E+00     0.00000E+00
        188     775.0   0.00000E+00    0.00000E+00     0.00000E+00
        189     780.0   0.00000E+00    0.00000E+00     0.00000E+00
        190     785.0   0.00000E+00    0.00000E+00     0.00000E+00
        191     790.0   0.00000E+00    0.00000E+00     0.00000E+00
        192     795.0   0.00000E+00    0.00000E+00     0.00000E+00
        193     800.0   0.00000E+00    0.00000E+00     0.00000E+00
        194     805.0   0.00000E+00    0.00000E+00     0.00000E+00
        195     810.0   0.00000E+00    0.00000E+00     0.00000E+00
        196     815.0   0.00000E+00    0.00000E+00     0.00000E+00
        197     820.0   0.00000E+00    0.00000E+00     0.00000E+00
        198     825.0   0.00000E+00    0.00000E+00     0.00000E+00
        199     830.0   0.00000E+00    0.00000E+00     0.00000E+00
        200     835.0   0.00000E+00    0.00000E+00     0.00000E+00
        201     840.0   0.00000E+00    0.00000E+00     0.00000E+00
        202     845.0   0.00000E+00    0.00000E+00     0.00000E+00
        203     850.0   0.00000E+00    0.00000E+00     0.00000E+00

NO2 quantum yields,cross sections, and T-dependence: JPL97









